# Pulseq sequence file
# Created by PyPulseq

[VERSION]
major 1
minor 4
revision 2

[DEFINITIONS]
AdcRasterTime 1e-07 
BlockDurationRaster 1e-05 
GradientRasterTime 1e-05 
RadiofrequencyRasterTime 1e-06 

# Format of blocks:
# NUM DUR RF  GX  GY  GZ  ADC  EXT
[BLOCKS]
  1 414   1   0   0   1  0  0
  2 324   0   2   3   4  0  0
  3 3060   0   0   0   0  0  0
  4 3200   0   0   0   5  0  0
  5 266   2   0   0   6  0  0
  6 3200   0   0   0   5  0  0
  7 3113   0   0   0   0  0  0
  8 644   0   7   0   0  1  0
  9 3200   0   0   8   5  0  0
 10 298194   0   0   0   0  0  0
 11 414   1   0   0   1  0  0
 12 324   0   2   9   4  0  0
 13 3060   0   0   0   0  0  0
 14 3200   0   0   0   5  0  0
 15 266   2   0   0   6  0  0
 16 3200   0   0   0   5  0  0
 17 3113   0   0   0   0  0  0
 18 644   0   7   0   0  1  0
 19 3200   0   0   8   5  0  0
 20 298194   0   0   0   0  0  0
 21 414   1   0   0   1  0  0
 22 324   0   2  10   4  0  0
 23 3060   0   0   0   0  0  0
 24 3200   0   0   0   5  0  0
 25 266   2   0   0   6  0  0
 26 3200   0   0   0   5  0  0
 27 3113   0   0   0   0  0  0
 28 644   0   7   0   0  1  0
 29 3200   0   0   8   5  0  0
 30 298194   0   0   0   0  0  0
 31 414   1   0   0   1  0  0
 32 324   0   2  11   4  0  0
 33 3060   0   0   0   0  0  0
 34 3200   0   0   0   5  0  0
 35 266   2   0   0   6  0  0
 36 3200   0   0   0   5  0  0
 37 3113   0   0   0   0  0  0
 38 644   0   7   0   0  1  0
 39 3200   0   0   8   5  0  0
 40 298194   0   0   0   0  0  0
 41 414   1   0   0   1  0  0
 42 324   0   2  12   4  0  0
 43 3060   0   0   0   0  0  0
 44 3200   0   0   0   5  0  0
 45 266   2   0   0   6  0  0
 46 3200   0   0   0   5  0  0
 47 3113   0   0   0   0  0  0
 48 644   0   7   0   0  1  0
 49 3200   0   0   8   5  0  0
 50 298194   0   0   0   0  0  0
 51 414   1   0   0   1  0  0
 52 324   0   2  13   4  0  0
 53 3060   0   0   0   0  0  0
 54 3200   0   0   0   5  0  0
 55 266   2   0   0   6  0  0
 56 3200   0   0   0   5  0  0
 57 3113   0   0   0   0  0  0
 58 644   0   7   0   0  1  0
 59 3200   0   0   8   5  0  0
 60 298194   0   0   0   0  0  0
 61 414   1   0   0   1  0  0
 62 324   0   2  14   4  0  0
 63 3060   0   0   0   0  0  0
 64 3200   0   0   0   5  0  0
 65 266   2   0   0   6  0  0
 66 3200   0   0   0   5  0  0
 67 3113   0   0   0   0  0  0
 68 644   0   7   0   0  1  0
 69 3200   0   0   8   5  0  0
 70 298194   0   0   0   0  0  0
 71 414   1   0   0   1  0  0
 72 324   0   2  15   4  0  0
 73 3060   0   0   0   0  0  0
 74 3200   0   0   0   5  0  0
 75 266   2   0   0   6  0  0
 76 3200   0   0   0   5  0  0
 77 3113   0   0   0   0  0  0
 78 644   0   7   0   0  1  0
 79 3200   0   0   8   5  0  0
 80 298194   0   0   0   0  0  0
 81 414   1   0   0   1  0  0
 82 324   0   2  16   4  0  0
 83 3060   0   0   0   0  0  0
 84 3200   0   0   0   5  0  0
 85 266   2   0   0   6  0  0
 86 3200   0   0   0   5  0  0
 87 3113   0   0   0   0  0  0
 88 644   0   7   0   0  1  0
 89 3200   0   0   8   5  0  0
 90 298194   0   0   0   0  0  0
 91 414   1   0   0   1  0  0
 92 324   0   2  17   4  0  0
 93 3060   0   0   0   0  0  0
 94 3200   0   0   0   5  0  0
 95 266   2   0   0   6  0  0
 96 3200   0   0   0   5  0  0
 97 3113   0   0   0   0  0  0
 98 644   0   7   0   0  1  0
 99 3200   0   0   8   5  0  0
100 298194   0   0   0   0  0  0
101 414   1   0   0   1  0  0
102 324   0   2  18   4  0  0
103 3060   0   0   0   0  0  0
104 3200   0   0   0   5  0  0
105 266   2   0   0   6  0  0
106 3200   0   0   0   5  0  0
107 3113   0   0   0   0  0  0
108 644   0   7   0   0  1  0
109 3200   0   0   8   5  0  0
110 298194   0   0   0   0  0  0
111 414   1   0   0   1  0  0
112 324   0   2  19   4  0  0
113 3060   0   0   0   0  0  0
114 3200   0   0   0   5  0  0
115 266   2   0   0   6  0  0
116 3200   0   0   0   5  0  0
117 3113   0   0   0   0  0  0
118 644   0   7   0   0  1  0
119 3200   0   0   8   5  0  0
120 298194   0   0   0   0  0  0
121 414   1   0   0   1  0  0
122 324   0   2  20   4  0  0
123 3060   0   0   0   0  0  0
124 3200   0   0   0   5  0  0
125 266   2   0   0   6  0  0
126 3200   0   0   0   5  0  0
127 3113   0   0   0   0  0  0
128 644   0   7   0   0  1  0
129 3200   0   0   8   5  0  0
130 298194   0   0   0   0  0  0
131 414   1   0   0   1  0  0
132 324   0   2  21   4  0  0
133 3060   0   0   0   0  0  0
134 3200   0   0   0   5  0  0
135 266   2   0   0   6  0  0
136 3200   0   0   0   5  0  0
137 3113   0   0   0   0  0  0
138 644   0   7   0   0  1  0
139 3200   0   0   8   5  0  0
140 298194   0   0   0   0  0  0
141 414   1   0   0   1  0  0
142 324   0   2  22   4  0  0
143 3060   0   0   0   0  0  0
144 3200   0   0   0   5  0  0
145 266   2   0   0   6  0  0
146 3200   0   0   0   5  0  0
147 3113   0   0   0   0  0  0
148 644   0   7   0   0  1  0
149 3200   0   0   8   5  0  0
150 298194   0   0   0   0  0  0
151 414   1   0   0   1  0  0
152 324   0   2  23   4  0  0
153 3060   0   0   0   0  0  0
154 3200   0   0   0   5  0  0
155 266   2   0   0   6  0  0
156 3200   0   0   0   5  0  0
157 3113   0   0   0   0  0  0
158 644   0   7   0   0  1  0
159 3200   0   0   8   5  0  0
160 298194   0   0   0   0  0  0
161 414   1   0   0   1  0  0
162 324   0   2  24   4  0  0
163 3060   0   0   0   0  0  0
164 3200   0   0   0   5  0  0
165 266   2   0   0   6  0  0
166 3200   0   0   0   5  0  0
167 3113   0   0   0   0  0  0
168 644   0   7   0   0  1  0
169 3200   0   0   8   5  0  0
170 298194   0   0   0   0  0  0
171 414   1   0   0   1  0  0
172 324   0   2  25   4  0  0
173 3060   0   0   0   0  0  0
174 3200   0   0   0   5  0  0
175 266   2   0   0   6  0  0
176 3200   0   0   0   5  0  0
177 3113   0   0   0   0  0  0
178 644   0   7   0   0  1  0
179 3200   0   0   8   5  0  0
180 298194   0   0   0   0  0  0
181 414   1   0   0   1  0  0
182 324   0   2  26   4  0  0
183 3060   0   0   0   0  0  0
184 3200   0   0   0   5  0  0
185 266   2   0   0   6  0  0
186 3200   0   0   0   5  0  0
187 3113   0   0   0   0  0  0
188 644   0   7   0   0  1  0
189 3200   0   0   8   5  0  0
190 298194   0   0   0   0  0  0
191 414   1   0   0   1  0  0
192 324   0   2  27   4  0  0
193 3060   0   0   0   0  0  0
194 3200   0   0   0   5  0  0
195 266   2   0   0   6  0  0
196 3200   0   0   0   5  0  0
197 3113   0   0   0   0  0  0
198 644   0   7   0   0  1  0
199 3200   0   0   8   5  0  0
200 298194   0   0   0   0  0  0
201 414   1   0   0   1  0  0
202 324   0   2  28   4  0  0
203 3060   0   0   0   0  0  0
204 3200   0   0   0   5  0  0
205 266   2   0   0   6  0  0
206 3200   0   0   0   5  0  0
207 3113   0   0   0   0  0  0
208 644   0   7   0   0  1  0
209 3200   0   0   8   5  0  0
210 298194   0   0   0   0  0  0
211 414   1   0   0   1  0  0
212 324   0   2  29   4  0  0
213 3060   0   0   0   0  0  0
214 3200   0   0   0   5  0  0
215 266   2   0   0   6  0  0
216 3200   0   0   0   5  0  0
217 3113   0   0   0   0  0  0
218 644   0   7   0   0  1  0
219 3200   0   0   8   5  0  0
220 298194   0   0   0   0  0  0
221 414   1   0   0   1  0  0
222 324   0   2  30   4  0  0
223 3060   0   0   0   0  0  0
224 3200   0   0   0   5  0  0
225 266   2   0   0   6  0  0
226 3200   0   0   0   5  0  0
227 3113   0   0   0   0  0  0
228 644   0   7   0   0  1  0
229 3200   0   0   8   5  0  0
230 298194   0   0   0   0  0  0
231 414   1   0   0   1  0  0
232 324   0   2  31   4  0  0
233 3060   0   0   0   0  0  0
234 3200   0   0   0   5  0  0
235 266   2   0   0   6  0  0
236 3200   0   0   0   5  0  0
237 3113   0   0   0   0  0  0
238 644   0   7   0   0  1  0
239 3200   0   0   8   5  0  0
240 298194   0   0   0   0  0  0
241 414   1   0   0   1  0  0
242 324   0   2  32   4  0  0
243 3060   0   0   0   0  0  0
244 3200   0   0   0   5  0  0
245 266   2   0   0   6  0  0
246 3200   0   0   0   5  0  0
247 3113   0   0   0   0  0  0
248 644   0   7   0   0  1  0
249 3200   0   0   8   5  0  0
250 298194   0   0   0   0  0  0

# Format of RF events:
# id amplitude mag_id phase_id time_shape_id delay freq phase
# ..        Hz   ....     ....          ....    us   Hz   rad
[RF]
1      246.896 1 2 0 100 -45000 0
2      789.964 3 4 0 100 -72000 1.5708

# Format of trapezoid gradients:
# id amplitude rise flat fall delay
# ..      Hz/m   us   us   us    us
[TRAP]
 1       200000  40 4000  40  60
 2      90909.1  20 3200  20   0
 3       161787 230 1540 230   0
 4      -179556 250 2000 250   0
 5       101795 250 31500 250   0
 6       320000  60 2500  60  40
 7      90909.1  20 6400  20   0
 8      -161787 230 1540 230   0
 9       159219 230 1540 230   0
10       156651 230 1540 230   0
11       154083 230 1540 230   0
12       151515 230 1540 230   0
13       148110 220 1560 220   0
14       145557 220 1560 220   0
15       143003 220 1560 220   0
16       140449 220 1560 220   0
17       137896 220 1560 220   0
18       134586 210 1580 210   0
19       132047 210 1580 210   0
20       129507 210 1580 210   0
21       126968 210 1580 210   0
22       124429 210 1580 210   0
23       121212 200 1600 200   0
24       118687 200 1600 200   0
25       116162 200 1600 200   0
26       113636 200 1600 200   0
27       111111 200 1600 200   0
28       107986 190 1620 190   0
29       105475 190 1620 190   0
30       102963 190 1620 190   0
31       100452 190 1620 190   0
32      97402.6 180 1640 180   0

# Format of ADC events:
# id num dwell delay freq phase
# ..  ..    ns    us   Hz   rad
[ADC]
1 128 50000 20 0 0

# Sequence Shapes
[SHAPES]

shape_id 1
num_samples 4000
3.85627869e-11
1.04171238e-09
4.82512116e-09
1.32466171e-08
2.81675804e-08
5.14528842e-08
8.49708342e-08
1.30593109e-07
1.90194699e-07
2.65653846e-07
3.58851985e-07
4.7167368e-07
6.06006564e-07
7.63741281e-07
9.46771418e-07
1.15699345e-06
1.39630668e-06
1.66661316e-06
1.96981767e-06
2.30782759e-06
2.6825529e-06
3.0959061e-06
3.54980212e-06
4.0461583e-06
4.58689428e-06
5.17393199e-06
5.80919554e-06
6.49461119e-06
7.23210725e-06
8.02361408e-06
8.87106393e-06
9.77639098e-06
1.07415312e-05
1.17684223e-05
1.28590038e-05
1.40152166e-05
1.52390034e-05
1.65323083e-05
1.78970768e-05
1.93352559e-05
2.08487936e-05
2.24396394e-05
2.4109744e-05
2.58610591e-05
2.76955373e-05
2.96151325e-05
3.16217992e-05
3.37174929e-05
3.59041699e-05
3.81837871e-05
4.0558302e-05
4.3029673e-05
4.55998586e-05
4.82708179e-05
5.10445106e-05
5.39228963e-05
5.69079352e-05
6.00015874e-05
6.32058133e-05
6.65225733e-05
6.99538278e-05
7.35015369e-05
7.71676608e-05
8.09541593e-05
8.48629921e-05
8.88961183e-05
9.30554966e-05
9.73430855e-05
0.000101760842
0.000106310725
0.000110994688
0.000115814689
0.000120772682
0.000125870621
0.000131110458
0.000136494146
0.000142023634
0.000147700873
0.000153527811
0.000159506395
0.00016563857
0.00017192628
0.000178371469
0.000184976075
0.00019174204
0.000198671301
0.000205765792
0.000213027449
0.000220458203
0.000228059983
0.000235834718
0.000243784334
0.000251910753
0.000260215896
0.000268701683
0.000277370029
0.000286222849
0.000295262054
0.000304489552
0.000313907248
0.000323517047
0.000333320848
0.000343320548
0.000353518043
0.000363915221
0.000374513973
0.000385316183
0.000396323732
0.000407538498
0.000418962356
0.000430597178
0.000442444831
0.000454507179
0.000466786083
0.000479283399
0.00049200098
0.000504940675
0.000518104329
0.000531493781
0.00054511087
0.000558957427
0.000573035281
0.000587346255
0.000601892169
0.000616674838
0.000631696072
0.000646957677
0.000662461454
0.000678209199
0.000694202704
0.000710443755
0.000726934133
0.000743675616
0.000760669975
0.000777918975
0.000795424378
0.00081318794
0.00083121141
0.000849496533
0.000868045049
0.00088685869
0.000905939185
0.000925288256
0.00094490762
0.000964798986
0.000984964058
0.00100540454
0.00102612211
0.00104711847
0.00106839529
0.00108995425
0.00111179702
0.00113392524
0.00115634059
0.0011790447
0.00120203922
0.00122532578
0.00124890601
0.00127278153
0.00129695395
0.00132142488
0.00134619592
0.00137126865
0.00139664468
0.00142232556
0.00144831288
0.00147460819
0.00150121305
0.00152812901
0.00155535761
0.00158290038
0.00161075885
0.00163893453
0.00166742893
0.00169624355
0.00172537988
0.00175483942
0.00178462363
0.00181473398
0.00184517193
0.00187593894
0.00190703645
0.00193846589
0.00197022868
0.00200232625
0.00203476
0.00206753133
0.00210064164
0.0021340923
0.00216788468
0.00220202016
0.00223650008
0.00227132578
0.00230649862
0.0023420199
0.00237789096
0.00241411308
0.00245068759
0.00248761575
0.00252489886
0.00256253817
0.00260053496
0.00263889046
0.00267760592
0.00271668257
0.00275612162
0.00279592428
0.00283609176
0.00287662524
0.0029175259
0.0029587949
0.00300043341
0.00304244258
0.00308482352
0.00312757738
0.00317070527
0.00321420828
0.00325808752
0.00330234407
0.00334697899
0.00339199334
0.00343738818
0.00348316455
0.00352932346
0.00357586593
0.00362279298
0.00367010558
0.00371780472
0.00376589137
0.00381436649
0.00386323102
0.00391248589
0.00396213203
0.00401217036
0.00406260176
0.00411342712
0.00416464732
0.00421626322
0.00426827567
0.0043206855
0.00437349355
0.00442670063
0.00448030753
0.00453431505
0.00458872396
0.00464353502
0.00469874898
0.00475436659
0.00481038856
0.00486681561
0.00492364844
0.00498088773
0.00503853415
0.00509658838
0.00515505104
0.00521392278
0.00527320422
0.00533289596
0.0053929986
0.00545351272
0.00551443889
0.00557577765
0.00563752955
0.00569969512
0.00576227486
0.00582526928
0.00588867885
0.00595250406
0.00601674535
0.00608140318
0.00614647797
0.00621197013
0.00627788006
0.00634420816
0.00641095479
0.00647812032
0.00654570508
0.00661370941
0.00668213361
0.006750978
0.00682024285
0.00688992844
0.00696003502
0.00703056284
0.00710151212
0.00717288308
0.0072446759
0.00731689078
0.00738952789
0.00746258736
0.00753606935
0.00760997396
0.00768430132
0.00775905151
0.00783422461
0.00790982068
0.00798583976
0.00806228188
0.00813914707
0.00821643532
0.00829414661
0.00837228091
0.00845083817
0.00852981834
0.00860922133
0.00868904704
0.00876929538
0.0088499662
0.00893105937
0.00901257473
0.00909451211
0.00917687132
0.00925965214
0.00934285436
0.00942647773
0.00951052202
0.00959498693
0.00967987218
0.00976517748
0.0098509025
0.0099370469
0.0100236103
0.0101105924
0.0101979928
0.010285811
0.0103740467
0.0104626994
0.0105517687
0.010641254
0.010731155
0.0108214711
0.0109122017
0.0110033464
0.0110949046
0.0111868757
0.0112792591
0.0113720543
0.0114652605
0.0115588773
0.0116529038
0.0117473395
0.0118421836
0.0119374355
0.0120330943
0.0121291595
0.0122256301
0.0123225055
0.0124197848
0.0125174672
0.0126155519
0.0127140381
0.0128129248
0.0129122112
0.0130118965
0.0131119796
0.0132124596
0.0133133356
0.0134146067
0.0135162718
0.0136183299
0.0137207799
0.013823621
0.0139268519
0.0140304716
0.0141344791
0.0142388732
0.0143436527
0.0144488165
0.0145543635
0.0146602925
0.0147666022
0.0148732915
0.014980359
0.0150878036
0.015195624
0.0153038188
0.0154123867
0.0155213265
0.0156306367
0.0157403161
0.0158503631
0.0159607765
0.0160715547
0.0161826963
0.0162942
0.0164060641
0.0165182873
0.0166308679
0.0167438045
0.0168570954
0.0169707392
0.0170847342
0.0171990789
0.0173137715
0.0174288105
0.0175441942
0.0176599209
0.0177759888
0.0178923964
0.0180091418
0.0181262233
0.0182436391
0.0183613873
0.0184794663
0.0185978742
0.018716609
0.018835669
0.0189550523
0.0190747568
0.0191947808
0.0193151223
0.0194357792
0.0195567497
0.0196780317
0.0197996232
0.0199215221
0.0200437265
0.0201662341
0.020289043
0.0204121509
0.0205355559
0.0206592556
0.020783248
0.0209075309
0.0210321019
0.021156959
0.0212820999
0.0214075222
0.0215332238
0.0216592022
0.0217854552
0.0219119805
0.0220387756
0.0221658382
0.022293166
0.0224207563
0.0225486069
0.0226767153
0.022805079
0.0229336955
0.0230625623
0.0231916768
0.0233210365
0.0234506389
0.0235804813
0.0237105611
0.0238408758
0.0239714226
0.0241021988
0.0242332019
0.0243644291
0.0244958777
0.0246275449
0.024759428
0.0248915242
0.0250238307
0.0251563447
0.0252890633
0.0254219838
0.0255551031
0.0256884184
0.0258219269
0.0259556256
0.0260895115
0.0262235816
0.026357833
0.0264922627
0.0266268677
0.0267616448
0.0268965911
0.0270317034
0.0271669787
0.0273024139
0.0274380057
0.0275737511
0.0277096469
0.0278456898
0.0279818767
0.0281182044
0.0282546695
0.0283912689
0.0285279992
0.0286648571
0.0288018393
0.0289389425
0.0290761633
0.0292134983
0.0293509441
0.0294884974
0.0296261546
0.0297639123
0.0299017671
0.0300397155
0.0301777539
0.0303158788
0.0304540867
0.0305923741
0.0307307372
0.0308691726
0.0310076767
0.0311462457
0.031284876
0.031423564
0.031562306
0.0317010982
0.031839937
0.0319788186
0.0321177392
0.032256695
0.0323956823
0.0325346972
0.0326737359
0.0328127946
0.0329518693
0.0330909563
0.0332300515
0.0333691511
0.0335082511
0.0336473476
0.0337864365
0.033925514
0.0340645759
0.0342036183
0.0343426372
0.0344816283
0.0346205878
0.0347595114
0.034898395
0.0350372346
0.035176026
0.0353147649
0.0354534473
0.0355920689
0.0357306255
0.0358691129
0.0360075267
0.0361458629
0.0362841169
0.0364222847
0.0365603617
0.0366983438
0.0368362265
0.0369740055
0.0371116763
0.0372492347
0.0373866761
0.0375239961
0.0376611903
0.0377982542
0.0379351833
0.0380719731
0.0382086191
0.0383451168
0.0384814616
0.0386176489
0.0387536741
0.0388895327
0.0390252201
0.0391607315
0.0392960625
0.0394312082
0.039566164
0.0397009252
0.0398354872
0.0399698451
0.0401039942
0.0402379299
0.0403716472
0.0405051415
0.0406384078
0.0407714415
0.0409042376
0.0410367914
0.0411690978
0.0413011521
0.0414329494
0.0415644848
0.0416957533
0.0418267499
0.0419574698
0.0420879079
0.0422180594
0.0423479191
0.042477482
0.0426067432
0.0427356976
0.0428643401
0.0429926657
0.0431206692
0.0432483456
0.0433756898
0.0435026966
0.0436293608
0.0437556774
0.0438816412
0.0440072469
0.0441324893
0.0442573634
0.0443818638
0.0445059852
0.0446297225
0.0447530704
0.0448760235
0.0449985766
0.0451207245
0.0452424617
0.0453637829
0.0454846828
0.045605156
0.0457251972
0.045844801
0.0459639619
0.0460826746
0.0462009336
0.0463187335
0.0464360689
0.0465529343
0.0466693241
0.046785233
0.0469006555
0.0470155859
0.0471300189
0.0472439488
0.0473573701
0.0474702773
0.0475826647
0.0476945269
0.0478058582
0.0479166529
0.0480269056
0.0481366106
0.0482457621
0.0483543546
0.0484623825
0.04856984
0.0486767214
0.0487830211
0.0488887333
0.0489938524
0.0490983726
0.0492022881
0.0493055933
0.0494082823
0.0495103495
0.0496117889
0.0497125949
0.0498127616
0.0499122832
0.0500111539
0.0501093678
0.0502069192
0.0503038022
0.0504000109
0.0504955394
0.0505903819
0.0506845325
0.0507779852
0.0508707343
0.0509627737
0.0510540975
0.0511446998
0.0512345747
0.0513237163
0.0514121184
0.0514997753
0.0515866809
0.0516728292
0.0517582142
0.0518428299
0.0519266704
0.0520097296
0.0520920014
0.0521734799
0.052254159
0.0523340326
0.0524130947
0.0524913393
0.0525687602
0.0526453514
0.0527211067
0.0527960202
0.0528700857
0.052943297
0.0530156481
0.0530871329
0.0531577452
0.0532274789
0.0532963278
0.0533642858
0.0534313468
0.0534975046
0.053562753
0.0536270858
0.0536904969
0.05375298
0.0538145291
0.0538751379
0.0539348001
0.0539935097
0.0540512603
0.0541080458
0.0541638599
0.0542186965
0.0542725492
0.0543254119
0.0543772782
0.054428142
0.054477997
0.054526837
0.0545746556
0.0546214467
0.0546672039
0.054711921
0.0547555917
0.0547982098
0.0548397688
0.0548802627
0.0549196849
0.0549580294
0.0549952897
0.0550314596
0.0550665327
0.0551005028
0.0551333636
0.0551651086
0.0551957317
0.0552252265
0.0552535867
0.0552808059
0.0553068778
0.0553317962
0.0553555546
0.0553781467
0.0553995663
0.0554198069
0.0554388622
0.0554567259
0.0554733917
0.0554888532
0.055503104
0.0555161379
0.0555279484
0.0555385293
0.0555478741
0.0555559766
0.0555628304
0.0555684291
0.0555727664
0.0555758359
0.0555776313
0.0555781463
0.0555773744
0.0555753094
0.0555719449
0.0555672745
0.0555612919
0.0555539907
0.0555453647
0.0555354074
0.0555241125
0.0555114737
0.0554974846
0.0554821388
0.0554654301
0.0554473522
0.0554278985
0.0554070629
0.055384839
0.0553612204
0.0553362009
0.0553097741
0.0552819337
0.0552526733
0.0552219866
0.0551898674
0.0551563092
0.0551213059
0.055084851
0.0550469383
0.0550075615
0.0549667142
0.0549243902
0.0548805832
0.0548352869
0.054788495
0.0547402012
0.0546903993
0.0546390829
0.0545862458
0.0545318818
0.0544759845
0.0544185478
0.0543595653
0.0542990309
0.0542369382
0.0541732811
0.0541080533
0.0540412485
0.0539728607
0.0539028834
0.0538313107
0.0537581361
0.0536833536
0.0536069569
0.0535289399
0.0534492963
0.0533680201
0.053285105
0.0532005448
0.0531143335
0.0530264648
0.0529369327
0.0528457309
0.0527528535
0.0526582941
0.0525620468
0.0524641054
0.0523644639
0.0522631161
0.0521600559
0.0520552773
0.0519487743
0.0518405407
0.0517305705
0.0516188577
0.0515053962
0.05139018
0.0512732031
0.0511544595
0.0510339432
0.0509116482
0.0507875685
0.0506616981
0.0505340312
0.0504045617
0.0502732836
0.0501401912
0.0500052784
0.0498685393
0.049729968
0.0495895587
0.0494473054
0.0493032023
0.0491572435
0.0490094232
0.0488597356
0.0487081747
0.0485547348
0.0483994102
0.0482421949
0.0480830832
0.0479220693
0.0477591475
0.0475943121
0.0474275572
0.0472588772
0.0470882664
0.046915719
0.0467412294
0.0465647918
0.0463864007
0.0462060504
0.0460237352
0.0458394496
0.0456531878
0.0454649444
0.0452747137
0.0450824901
0.0448882681
0.0446920422
0.0444938068
0.0442935564
0.0440912856
0.0438869887
0.0436806604
0.0434722951
0.0432618875
0.0430494321
0.0428349235
0.0426183563
0.042399725
0.0421790245
0.0419562491
0.0417313937
0.0415044529
0.0412754215
0.041044294
0.0408110652
0.0405757299
0.0403382828
0.0400987187
0.0398570323
0.0396132185
0.0393672721
0.039119188
0.0388689608
0.0386165857
0.0383620573
0.0381053707
0.0378465207
0.0375855023
0.0373223104
0.03705694
0.0367893861
0.0365196437
0.0362477078
0.0359735734
0.0356972357
0.0354186897
0.0351379304
0.0348549531
0.0345697527
0.0342823246
0.0339926638
0.0337007656
0.0334066251
0.0331102376
0.0328115983
0.0325107025
0.0322075454
0.0319021224
0.0315944288
0.03128446
0.0309722112
0.0306576779
0.0303408555
0.0300217394
0.029700325
0.0293766078
0.0290505833
0.028722247
0.0283915944
0.0280586211
0.0277233225
0.0273856944
0.0270457323
0.0267034319
0.0263587887
0.0260117985
0.025662457
0.0253107598
0.0249567027
0.0246002815
0.0242414919
0.0238803298
0.0235167909
0.0231508712
0.0227825664
0.0224118725
0.0220387854
0.021663301
0.0212854153
0.0209051242
0.0205224238
0.0201373101
0.0197497792
0.019359827
0.0189674498
0.0185726436
0.0181754045
0.0177757289
0.0173736127
0.0169690523
0.0165620439
0.0161525838
0.0157406681
0.0153262934
0.0149094558
0.0144901518
0.0140683777
0.01364413
0.013217405
0.0127881993
0.0123565093
0.0119223315
0.0114856625
0.0110464989
0.0106048371
0.0101606739
0.00971400584
0.0092648296
0.00881314187
0.00835893937
0.00790221883
0.00744297702
0.00698121073
0.00651691678
0.00605009202
0.00558073331
0.00510883755
0.00463440167
0.00415742261
0.00367789736
0.00319582291
0.00271119631
0.0022240146
0.00173427487
0.00124197424
0.000747109845
0.00024967885
0.000250321549
0.000752894128
0.00125804164
0.0017657668
0.00227607231
0.00278896083
0.00330443501
0.00382249744
0.00434315072
0.0048663974
0.00539224
0.00592068102
0.00645172292
0.00698536815
0.00752161912
0.00806047821
0.00860194777
0.00914603013
0.00969272757
0.0102420424
0.0107939768
0.011348533
0.0119057131
0.0124655194
0.013027954
0.0135930189
0.0141607162
0.0147310478
0.015304016
0.0158796225
0.0164578693
0.0170387584
0.0176222916
0.0182084708
0.0187972978
0.0193887743
0.0199829022
0.0205796831
0.0211791188
0.0217812109
0.0223859611
0.0229933709
0.023603442
0.0242161758
0.0248315739
0.0254496378
0.0260703689
0.0266937687
0.0273198384
0.0279485795
0.0285799933
0.0292140811
0.0298508442
0.0304902837
0.0311324008
0.0317771968
0.0324246728
0.0330748298
0.033727669
0.0343831913
0.0350413977
0.0357022893
0.036365867
0.0370321316
0.0377010841
0.0383727253
0.039047056
0.039724077
0.040403789
0.0410861927
0.0417712888
0.042459078
0.0431495608
0.0438427379
0.0445386097
0.0452371768
0.0459384397
0.0466423989
0.0473490546
0.0480584073
0.0487704574
0.0494852052
0.0502026509
0.0509227947
0.051645637
0.0523711778
0.0530994173
0.0538303557
0.0545639929
0.055300329
0.0560393641
0.0567810981
0.057525531
0.0582726626
0.0590224928
0.0597750214
0.0605302483
0.0612881733
0.0620487959
0.0628121161
0.0635781333
0.0643468473
0.0651182576
0.0658923638
0.0666691654
0.0674486619
0.0682308528
0.0690157374
0.0698033153
0.0705935856
0.0713865477
0.072182201
0.0729805446
0.0737815777
0.0745852996
0.0753917094
0.0762008061
0.0770125888
0.0778270567
0.0786442086
0.0794640435
0.0802865604
0.0811117581
0.0819396356
0.0827701915
0.0836034248
0.0844393341
0.0852779182
0.0861191757
0.0869631053
0.0878097056
0.0886589752
0.0895109125
0.0903655162
0.0912227845
0.0920827161
0.0929453092
0.0938105623
0.0946784735
0.0955490413
0.0964222639
0.0972981394
0.098176666
0.099057842
0.0999416653
0.100828134
0.101717246
0.102609
0.103503393
0.104400424
0.105300089
0.106202388
0.107107318
0.108014876
0.108925061
0.109837869
0.1107533
0.11167135
0.112592017
0.113515298
0.114441191
0.115369694
0.116300804
0.117234519
0.118170835
0.11910975
0.120051261
0.120995366
0.121942062
0.122891346
0.123843216
0.124797667
0.125754698
0.126714306
0.127676486
0.128641238
0.129608556
0.130578439
0.131550883
0.132525885
0.133503441
0.134483549
0.135466205
0.136451406
0.137439149
0.138429429
0.139422244
0.14041759
0.141415464
0.142415862
0.14341878
0.144424216
0.145432164
0.146442622
0.147455586
0.148471052
0.149489016
0.150509474
0.151532423
0.152557859
0.153585777
0.154616174
0.155649045
0.156684387
0.157722195
0.158762466
0.159805195
0.160850378
0.16189801
0.162948088
0.164000606
0.165055562
0.16611295
0.167172766
0.168235005
0.169299663
0.170366735
0.171436217
0.172508105
0.173582393
0.174659076
0.175738151
0.176819612
0.177903455
0.178989674
0.180078266
0.181169224
0.182262544
0.183358221
0.184456251
0.185556627
0.186659345
0.187764399
0.188871786
0.189981498
0.191093532
0.192207882
0.193324542
0.194443508
0.195564773
0.196688333
0.197814181
0.198942313
0.200072723
0.201205406
0.202340355
0.203477565
0.204617031
0.205758747
0.206902707
0.208048905
0.209197335
0.210347992
0.21150087
0.212655963
0.213813264
0.214972769
0.21613447
0.217298362
0.218464438
0.219632693
0.220803121
0.221975715
0.223150468
0.224327376
0.22550643
0.226687626
0.227870956
0.229056415
0.230243995
0.231433691
0.232625495
0.233819402
0.235015404
0.236213495
0.237413668
0.238615917
0.239820235
0.241026615
0.242235051
0.243445535
0.24465806
0.245872621
0.247089209
0.248307818
0.249528441
0.25075107
0.2519757
0.253202321
0.254430929
0.255661514
0.256894071
0.258128592
0.259365069
0.260603495
0.261843863
0.263086166
0.264330396
0.265576545
0.266824607
0.268074573
0.269326437
0.27058019
0.271835824
0.273093334
0.274352709
0.275613944
0.27687703
0.278141959
0.279408723
0.280677316
0.281947728
0.283219952
0.28449398
0.285769804
0.287047416
0.288326808
0.289607972
0.2908909
0.292175583
0.293462014
0.294750184
0.296040085
0.297331708
0.298625047
0.299920091
0.301216833
0.302515265
0.303815377
0.305117162
0.306420611
0.307725716
0.309032468
0.310340857
0.311650877
0.312962518
0.314275771
0.315590628
0.31690708
0.318225119
0.319544734
0.320865919
0.322188663
0.323512958
0.324838795
0.326166165
0.32749506
0.328825469
0.330157384
0.331490796
0.332825696
0.334162075
0.335499924
0.336839232
0.338179992
0.339522194
0.340865829
0.342210887
0.343557359
0.344905235
0.346254507
0.347605165
0.348957199
0.350310601
0.351665359
0.353021466
0.354378911
0.355737685
0.357097778
0.35845918
0.359821883
0.361185875
0.362551148
0.363917692
0.365285496
0.366654552
0.368024849
0.369396377
0.370769127
0.372143089
0.373518252
0.374894607
0.376272143
0.377650852
0.379030722
0.380411743
0.381793906
0.3831772
0.384561616
0.385947142
0.38733377
0.388721487
0.390110286
0.391500154
0.392891082
0.394283059
0.395676076
0.397070121
0.398465184
0.399861256
0.401258324
0.40265638
0.404055412
0.40545541
0.406856363
0.408258261
0.409661093
0.411064848
0.412469517
0.413875088
0.41528155
0.416688893
0.418097106
0.419506178
0.420916099
0.422326858
0.423738443
0.425150845
0.426564052
0.427978052
0.429392837
0.430808393
0.432224711
0.43364178
0.435059588
0.436478124
0.437897377
0.439317337
0.440737992
0.442159331
0.443581343
0.445004017
0.446427341
0.447851305
0.449275897
0.450701106
0.45212692
0.453553329
0.454980321
0.456407884
0.457836008
0.459264682
0.460693892
0.462123629
0.463553881
0.464984637
0.466415884
0.467847612
0.469279809
0.470712463
0.472145563
0.473579098
0.475013056
0.476447424
0.477882193
0.479317349
0.480752882
0.48218878
0.483625031
0.485061623
0.486498545
0.487935785
0.489373331
0.490811171
0.492249294
0.493687688
0.495126342
0.496565242
0.498004378
0.499443737
0.500883309
0.50232308
0.503763038
0.505203173
0.506643472
0.508083924
0.509524515
0.510965234
0.51240607
0.51384701
0.515288042
0.516729155
0.518170335
0.519611572
0.521052852
0.522494164
0.523935497
0.525376836
0.526818172
0.528259491
0.529700781
0.53114203
0.532583226
0.534024357
0.53546541
0.536906374
0.538347236
0.539787983
0.541228604
0.542669087
0.544109419
0.545549587
0.54698958
0.548429385
0.54986899
0.551308383
0.55274755
0.554186481
0.555625162
0.557063581
0.558501726
0.559939585
0.561377144
0.562814392
0.564251316
0.565687904
0.567124143
0.568560021
0.569995525
0.571430644
0.572865363
0.574299672
0.575733558
0.577167007
0.578600008
0.580032548
0.581464615
0.582896195
0.584327277
0.585757848
0.587187896
0.588617407
0.59004637
0.591474771
0.592902598
0.59432984
0.595756482
0.597182512
0.598607919
0.600032688
0.601456809
0.602880267
0.604303051
0.605725148
0.607146545
0.60856723
0.609987189
0.611406411
0.612824883
0.614242592
0.615659525
0.61707567
0.618491014
0.619905544
0.621319249
0.622732114
0.624144128
0.625555278
0.626965551
0.628374935
0.629783417
0.631190983
0.632597622
0.634003322
0.635408068
0.636811848
0.638214651
0.639616463
0.641017271
0.642417063
0.643815826
0.645213547
0.646610214
0.648005814
0.649400335
0.650793763
0.652186087
0.653577292
0.654967368
0.6563563
0.657744077
