# Pulseq sequence file
# Created by PyPulseq

[VERSION]
major 1
minor 4
revision 2

[DEFINITIONS]
AdcRasterTime 1e-07 
BlockDurationRaster 1e-05 
GradientRasterTime 1e-05 
RadiofrequencyRasterTime 1e-06 

# Format of blocks:
# NUM DUR RF  GX  GY  GZ  ADC  EXT
[BLOCKS]
1 100   1   0   0   0  0  0

# Format of RF events:
# id amplitude mag_id phase_id time_shape_id delay freq phase
# ..        Hz   ....     ....          ....    us   Hz   rad
[RF]
1      1130.02 1 2 0 0 0 0

# Sequence Shapes
[SHAPES]

shape_id 1
num_samples 1000
0.015713
0.0016406
0.0016405
0.0016406
0.0016406
6
0.0017662
0.0017804
0.0017803
0.0017804
0.0017803
0.0017804
0.0017803
0.0017804
0.0017803
0.0017804
0.0018963
0.0019257
0.0019257
4
0.0019256
0.0019257
0.0019257
0
0.0019949
0.0020249
0.002025
0.0020249
0.002025
0.0020249
0.002025
0.0020249
0.0020249
0
0.002025
0.0020331
0.0020387
0.0020387
0
0.0020386
0.0020387
0.0020387
0
0.0020386
0.0020387
0.0020387
0
0.0020386
0.0019947
0.0019497
0.0019498
0.0019498
0
0.0019497
0.0019498
0.0019497
0.0019498
0.0019497
0.0019498
0.0018779
0.0017674
0.0017673
0.0017674
0.0017674
0
0.0017673
0.0017674
0.0017674
0
0.0017673
0.0017674
0.0016955
0.0015218
0.0015219
0.0015219
1
0.0015218
0.0015219
0.0015219
1
0.0015218
0.0014697
0.0012496
0.0012497
0.0012497
2
0.0012496
0.0012497
0.0012497
1
0.0012247
0.0009749
0.000975
0.000975
0
0.0009749
0.000975
0.000975
0
0.0009749
0.000975
0.000975
0
0.0009749
0.0007039
0.0007011
0.0007011
1
0.000701
0.0007011
0.0007011
3
0.0004504
0.0004192
0.0004191
0.0004191
0
0.0004192
0.0004191
0.0004192
0.0004191
0.0004191
0
0.0004192
0.0001881
0.0001259
0.0001259
1
0.000126
0.0001259
0.0001259
2
0.000126
-7.49e-05
-0.0001664
-0.0001664
0
-0.0001665
-0.0001664
-0.0001664
3
-0.0001665
-0.0003264
-0.0004396
-0.0004395
-0.0004396
-0.0004396
1
-0.0004395
-0.0004396
-0.0004396
1
-0.0005603
-0.0006886
-0.0006885
-0.0006886
-0.0006886
5
-0.000782
-0.0009319
-0.000932
-0.000932
0
-0.0009319
-0.000932
-0.000932
0
-0.0009319
-0.000932
-0.0009319
-0.0010081
-0.0012011
-0.0012011
4
-0.001201
-0.0012011
-0.0012011
0
-0.0012587
-0.0015176
-0.0015175
-0.0015176
-0.0015176
5
-0.0015467
-0.0018781
-0.0018781
0
-0.001878
-0.0018781
-0.0018781
5
-0.0022505
-0.0022582
-0.0022583
-0.0022582
-0.0022582
0
-0.0022583
-0.0022582
-0.0022582
1
-0.0022583
-0.002585
-0.0026301
-0.0026301
7
-0.0029006
-0.002978
-0.0029779
-0.0029779
5
-0.002978
-0.0031966
-0.0033012
-0.0033011
-0.0033012
-0.0033011
-0.0033012
-0.0033011
-0.0033012
-0.0033011
-0.0033012
-0.0034768
-0.0036064
-0.0036063
-0.0036063
1
0.0025709
0.0036064
0.0036063
0.0036063
1
0.0037434
0.0038951
0.0038951
0
0.003895
0.0038951
0.0038951
0
0.003895
0.0038951
0.0038951
0
0.003895
0.0039931
0.0041572
0.0041573
0.0041572
0.0041573
0.0041572
0.0041573
0.0041572
0.0041572
0
0.0041573
0.0042165
0.0043747
0.0043747
3
0.0043746
0.0043747
0.0043747
1
0.0044024
0.004536
0.004536
7
0.0045443
0.0046542
0.0046542
0
0.0046541
0.0046542
0.0046542
0
0.0046541
0.0046542
0.0046542
0
0.0046541
0.0046542
0.0047669
0.0047704
0.0047704
7
0.004912
0.0049333
0.0049333
1
0.0049334
0.0049333
0.0049333
1
0.0049334
0.0049333
0.0051095
0.0051628
0.0051628
0
0.0051629
0.0051628
0.0051628
1
0.0051629
0.0051628
0.0051628
0
0.0053403
0.0054291
0.005429
0.005429
0
0.0054291
0.005429
0.005429
0
0.0054291
0.005429
0.0054291
0.0055655
0.0056703
0.0056703
0
0.0056704
0.0056703
0.0056703
1
0.0056704
0.0056703
0.0056703
0
0.0057489
0.0058393
0.0058394
0.0058393
0.0058394
0.0058394
0
0.0058393
0.0058394
0.0058393
0.0058394
0.0058736
0.0059335
0.0059336
0.0059335
0.0059336
0.0059335
0.0059336
0.0059335
0.0059336
0.0059335
0.0059445
0.005975
0.0059751
0.005975
0.005975
0
0.0059751
0.005975
0.0059751
0.005975
0.0059751
0.0059719
0.0059556
0.0059557
0.0059557
1
0.0059556
0.0059557
0.0059557
1
0.0059556
0.0059466
0.0058054
0.0058054
2
0.0058053
0.0058054
0.0058054
3
0.0054425
0.0054273
0.0054273
0
0.0054272
0.0054273
0.0054273
0
0.0054272
0.0054273
0.0054273
0
0.0054272
0.0048681
0.0047761
0.004776
0.004776
4
0.0047761
0.004776
0.0041165
0.0039055
0.0039054
0.0039055
0.0039055
0
0.0039054
0.0039055
0.0039055
1
0.0039054
0.0032675
0.0029337
0.0029337
5
0.0029336
0.0029337
0.0023902
0.0019552
0.0019553
0.0019552
0.0019553
0.0019552
0.0019553
0.0019552
0.0019553
0.0019552
0.0015151
0.0009869
0.000987
0.0009869
0.0009869
1
0.000987
0.0009869
0.0009869
0
0.000987
0.0006387
2e-06
2e-06
0
2.1e-06
2e-06
2e-06
1
2.1e-06
2e-06
2e-06
0
-0.0002469
-0.0009839
-0.0009839
0
-0.0009838
-0.0009839
-0.0009838
-0.0009839
-0.0009839
0
-0.0009838
-0.0009839
-0.001118
-0.0018696
-0.0018695
-0.0018696
-0.0018696
0
-0.0018695
-0.0018696
-0.0018695
-0.0018696
-0.0018696
0
-0.0019024
-0.0025209
-0.0025209
8
-0.0028551
-0.0028729
-0.0028729
1
-0.0028728
-0.0028729
-0.0028729
2
-0.0028728
-0.0029646
-0.0029808
-0.0029809
-0.0029809
1
-0.0029808
-0.0029809
-0.0029809
1
-0.0029808
-0.0029724
-0.0029696
-0.0029695
-0.0029696
-0.0029695
-0.0029696
-0.0029695
-0.0029695
0
-0.0029696
-0.0029695
-0.0029445
-0.0029308
-0.0029307
-0.0029308
-0.0029307
-0.0029308
-0.0029307
-0.0029308
-0.0029307
-0.0029308
-0.0028982
-0.0028711
-0.0028712
-0.0028711
-0.0028711
0
-0.0028712
-0.0028711
-0.0028711
1
-0.0028712
-0.0028197
-0.0027554
-0.0027554
1
-0.0027555
-0.0027554
-0.0027554
1
-0.0027555
-0.0027554
-0.0026994
-0.0025925
-0.0025924
-0.0025924
3
-0.0025925
-0.0025924
-0.0025924
0
-0.0025626
-0.0024692
-0.0024693
-0.0024692
-0.0024693
-0.0024692
-0.0024693
-0.0024693
0
-0.0024692
-0.0024693
-0.0024732
-0.0024973
-0.0024973
5
-0.0024972
-0.0024973
-0.0025065
-0.0027245
-0.0027244
-0.0027244
0
-0.0027245
-0.0027244
-0.0027244
0
-0.0027245
-0.0027244
-0.0027244
0
-0.0027245
-0.0030775
-0.0031002
-0.0031003
-0.0031003
2
-0.0031002
-0.0031003
-0.0031003
1
-0.0034552
-0.0035237
-0.0035237
7
-0.0038169
-0.0039213
-0.0039213
0
-0.0039214
-0.0039213
-0.0039213
0
-0.0039214
-0.0039213
-0.0039214
-0.0039213
-0.0041513
-0.0042828
-0.0042827
-0.0042827
0
-0.0042828
-0.0042827
-0.0042828
-0.0042827
-0.0042827
0
-0.0042828
-0.0044679
-0.0046287
-0.0046287
0
-0.0046288
-0.0046287
-0.0046287
4
-0.004771
-0.0049563
-0.0049563
7
-0.0050438
-0.0052188
-0.0052189
-0.0052188
-0.0052189
-0.0052189
0
-0.0052188
-0.0052189
-0.0052188
-0.0052189
-0.0052508
-0.0053563
-0.0053563
0
-0.0053564
-0.0053563
-0.0053563
0
-0.0053564
-0.0053563
-0.0053563
0
-0.0053564
-0.0053544
-0.0053414
-0.0053414
0
-0.0053415
-0.0053414
-0.0053414
0
-0.0053415
-0.0053414
-0.0053414
0
-0.0053415
-0.0053371
-0.0051975
-0.0051975
1
-0.0051976
-0.0051975
-0.0051975
0
-0.0051976
-0.0051975
-0.0051975
1
-0.0049931
-0.0049776
-0.0049775
-0.0049775
1
-0.0049776
-0.0049775
-0.0049775
0
-0.0049776
-0.0049775
-0.0047707
-0.0047277
-0.0047278
-0.0047278
3
-0.0047277
-0.0047278
-0.0047278
0
-0.0045382
-0.0044671
-0.0044671
4
-0.004467
-0.0044671
-0.0044671
0
-0.004294
-0.0041905
-0.0041906
-0.0041906
0
-0.0041905
-0.0041906
-0.0041906
0
-0.0041905
-0.0041906
-0.0041906
0
-0.0040311
-0.0038871
-0.0038871
2
-0.0027841
0.0038871
0.003887
0.0038871
0.0038871
0
0.0037458
0.003554
0.0035541
0.003554
0.003554
1
0.0035541
0.003554
0.003554
0
0.0035541
0.0034399
0.0032009
0.0032009
0
0.003201
0.0032009
0.003201
0.0032009
0.003201
0.0032009
0.0032009
0
0.0031213
0.0028425
0.0028425
2
0.0028426
0.0028425
0.0028425
2
0.0027993
0.0024866
0.0024866
3
0.0024865
0.0024866
0.0024866
1
0.0024793
0.0021258
0.0021258
8
0.0017718
0.0017407
0.0017406
0.0017407
0.0017407
0
0.0017406
0.0017407
0.0017407
0
0.0017406
0.0017407
0.0013925
0.0013151
0.0013151
7
0.0009843
0.0008538
0.0008538
3
0.0008537
0.0008538
0.0008538
1
0.0005656
0.0003861
0.0003861
7
0.0001618
-4.92e-05
-4.93e-05
-4.93e-05
0
-4.92e-05
-4.93e-05
-4.93e-05
0
-4.92e-05
-4.93e-05
-4.92e-05
-0.0002057
-0.000427
-0.0004269
-0.0004269
0
-0.000427
-0.0004269
-0.0004269
0
-0.000427
-0.0004269
-0.0004269
0
-0.0005268
-0.0007456
-0.0007456
7
-0.0008034
-0.0010179
-0.0010179
0
-0.001018
-0.0010179
-0.0010179
1
-0.001018
-0.0010179
-0.0010179
0
-0.0010439
-0.001251
-0.0012511
-0.0012511
0
-0.001251
-0.0012511
-0.0012511
0
-0.001251
-0.0012511
-0.0012511
0
-0.0012529
-0.0014376
-0.0014375
-0.0014376
-0.0014375
-0.0014376
-0.0014375
-0.0014375
0
-0.0014376
-0.0014375
-0.0014376
-0.001553
-0.0015644
-0.0015645
-0.0015645
6
-0.0016178
-0.0016303
-0.0016304
-0.0016304
2
-0.0016303
-0.0016304
-0.0016304
1
-0.001645
-0.0016512
-0.0016511
-0.0016511
0
-0.0016512
-0.0016511
-0.0016512
-0.0016511
-0.0016511
0
-0.0016512
-0.0016498
-0.0016491
-0.001649
-0.001649
0
-0.0016491
-0.001649
-0.0016491
-0.001649
-0.001649
0
-0.0016491
-0.0016421
-0.0016354
-0.0016353
-0.0016354
-0.0016354
1
-0.0016353
-0.0016354
-0.0016354
1
-0.0016227
-0.0016041
-0.0016041
3
-0.0016042
-0.0016041
-0.0016041
1
-0.0015857
-0.0015432
-0.0015433
-0.0015433
2
-0.0015432
-0.0015433
-0.0015433
1
-0.0015253
-0.0014541
-0.0014541
3
-0.0014542
-0.0014541
-0.0014541
1
-0.0014447
-0.0013607
-0.0013606
-0.0013607
-0.0013606
-0.0013607
-0.0013606
-0.0013607
-0.0013606
-0.0013607

shape_id 2
num_samples 1000
0.5
0
0
245
-0.5
0
0
502
0.5
0
0
244


[SIGNATURE]
# This is the hash of the Pulseq file, calculated right before the [SIGNATURE] section was added
# It can be reproduced/verified with md5sum if the file trimmed to the position right above [SIGNATURE]
# The new line character preceding [SIGNATURE] BELONGS to the signature (and needs to be stripped away for recalculating/verification)
Type md5
Hash 0996daff472684399d507608a717d675
