# Pulseq sequence file
# Created by PyPulseq

[VERSION]
major 1
minor 4
revision 2

[DEFINITIONS]
AdcRasterTime 1e-07 
BlockDurationRaster 1e-05 
GradientRasterTime 1e-05 
RadiofrequencyRasterTime 1e-06 

# Format of blocks:
# NUM DUR RF  GX  GY  GZ  ADC  EXT
[BLOCKS]
   1 414   1   0   0   1  0  0
   2 324   0   2   3   4  0  0
   3 359   0   0   0   0  0  0
   4 3200   0   0   0   5  0  0
   5 266   2   0   0   6  0  0
   6 3200   0   0   0   5  0  0
   7 305   0   0   0   0  0  0
   8 644   0   7   0   0  1  0
   9 3200   0   0   8   5  0  0
  10 291357   0   0   0   0  0  0
  11 414   1   0   0   1  0  0
  12 324   0   2   9   4  0  0
  13 359   0   0   0   0  0  0
  14 3200   0   0   0   5  0  0
  15 266   2   0   0   6  0  0
  16 3200   0   0   0   5  0  0
  17 305   0   0   0   0  0  0
  18 644   0   7   0   0  1  0
  19 3200   0   0   8   5  0  0
  20 291357   0   0   0   0  0  0
  21 414   1   0   0   1  0  0
  22 324   0   2  10   4  0  0
  23 359   0   0   0   0  0  0
  24 3200   0   0   0   5  0  0
  25 266   2   0   0   6  0  0
  26 3200   0   0   0   5  0  0
  27 305   0   0   0   0  0  0
  28 644   0   7   0   0  1  0
  29 3200   0   0   8   5  0  0
  30 291357   0   0   0   0  0  0
  31 414   1   0   0   1  0  0
  32 324   0   2  11   4  0  0
  33 359   0   0   0   0  0  0
  34 3200   0   0   0   5  0  0
  35 266   2   0   0   6  0  0
  36 3200   0   0   0   5  0  0
  37 305   0   0   0   0  0  0
  38 644   0   7   0   0  1  0
  39 3200   0   0   8   5  0  0
  40 291357   0   0   0   0  0  0
  41 414   1   0   0   1  0  0
  42 324   0   2  12   4  0  0
  43 359   0   0   0   0  0  0
  44 3200   0   0   0   5  0  0
  45 266   2   0   0   6  0  0
  46 3200   0   0   0   5  0  0
  47 305   0   0   0   0  0  0
  48 644   0   7   0   0  1  0
  49 3200   0   0   8   5  0  0
  50 291357   0   0   0   0  0  0
  51 414   1   0   0   1  0  0
  52 324   0   2  13   4  0  0
  53 359   0   0   0   0  0  0
  54 3200   0   0   0   5  0  0
  55 266   2   0   0   6  0  0
  56 3200   0   0   0   5  0  0
  57 305   0   0   0   0  0  0
  58 644   0   7   0   0  1  0
  59 3200   0   0   8   5  0  0
  60 291357   0   0   0   0  0  0
  61 414   1   0   0   1  0  0
  62 324   0   2  14   4  0  0
  63 359   0   0   0   0  0  0
  64 3200   0   0   0   5  0  0
  65 266   2   0   0   6  0  0
  66 3200   0   0   0   5  0  0
  67 305   0   0   0   0  0  0
  68 644   0   7   0   0  1  0
  69 3200   0   0   8   5  0  0
  70 291357   0   0   0   0  0  0
  71 414   1   0   0   1  0  0
  72 324   0   2  15   4  0  0
  73 359   0   0   0   0  0  0
  74 3200   0   0   0   5  0  0
  75 266   2   0   0   6  0  0
  76 3200   0   0   0   5  0  0
  77 305   0   0   0   0  0  0
  78 644   0   7   0   0  1  0
  79 3200   0   0   8   5  0  0
  80 291357   0   0   0   0  0  0
  81 414   1   0   0   1  0  0
  82 324   0   2  16   4  0  0
  83 359   0   0   0   0  0  0
  84 3200   0   0   0   5  0  0
  85 266   2   0   0   6  0  0
  86 3200   0   0   0   5  0  0
  87 305   0   0   0   0  0  0
  88 644   0   7   0   0  1  0
  89 3200   0   0   8   5  0  0
  90 291357   0   0   0   0  0  0
  91 414   1   0   0   1  0  0
  92 324   0   2  17   4  0  0
  93 359   0   0   0   0  0  0
  94 3200   0   0   0   5  0  0
  95 266   2   0   0   6  0  0
  96 3200   0   0   0   5  0  0
  97 305   0   0   0   0  0  0
  98 644   0   7   0   0  1  0
  99 3200   0   0   8   5  0  0
 100 291357   0   0   0   0  0  0
 101 414   1   0   0   1  0  0
 102 324   0   2  18   4  0  0
 103 359   0   0   0   0  0  0
 104 3200   0   0   0   5  0  0
 105 266   2   0   0   6  0  0
 106 3200   0   0   0   5  0  0
 107 305   0   0   0   0  0  0
 108 644   0   7   0   0  1  0
 109 3200   0   0   8   5  0  0
 110 291357   0   0   0   0  0  0
 111 414   1   0   0   1  0  0
 112 324   0   2  19   4  0  0
 113 359   0   0   0   0  0  0
 114 3200   0   0   0   5  0  0
 115 266   2   0   0   6  0  0
 116 3200   0   0   0   5  0  0
 117 305   0   0   0   0  0  0
 118 644   0   7   0   0  1  0
 119 3200   0   0   8   5  0  0
 120 291357   0   0   0   0  0  0
 121 414   1   0   0   1  0  0
 122 324   0   2  20   4  0  0
 123 359   0   0   0   0  0  0
 124 3200   0   0   0   5  0  0
 125 266   2   0   0   6  0  0
 126 3200   0   0   0   5  0  0
 127 305   0   0   0   0  0  0
 128 644   0   7   0   0  1  0
 129 3200   0   0   8   5  0  0
 130 291357   0   0   0   0  0  0
 131 414   1   0   0   1  0  0
 132 324   0   2  21   4  0  0
 133 359   0   0   0   0  0  0
 134 3200   0   0   0   5  0  0
 135 266   2   0   0   6  0  0
 136 3200   0   0   0   5  0  0
 137 305   0   0   0   0  0  0
 138 644   0   7   0   0  1  0
 139 3200   0   0   8   5  0  0
 140 291357   0   0   0   0  0  0
 141 414   1   0   0   1  0  0
 142 324   0   2  22   4  0  0
 143 359   0   0   0   0  0  0
 144 3200   0   0   0   5  0  0
 145 266   2   0   0   6  0  0
 146 3200   0   0   0   5  0  0
 147 305   0   0   0   0  0  0
 148 644   0   7   0   0  1  0
 149 3200   0   0   8   5  0  0
 150 291357   0   0   0   0  0  0
 151 414   1   0   0   1  0  0
 152 324   0   2  23   4  0  0
 153 359   0   0   0   0  0  0
 154 3200   0   0   0   5  0  0
 155 266   2   0   0   6  0  0
 156 3200   0   0   0   5  0  0
 157 305   0   0   0   0  0  0
 158 644   0   7   0   0  1  0
 159 3200   0   0   8   5  0  0
 160 291357   0   0   0   0  0  0
 161 414   1   0   0   1  0  0
 162 324   0   2  24   4  0  0
 163 359   0   0   0   0  0  0
 164 3200   0   0   0   5  0  0
 165 266   2   0   0   6  0  0
 166 3200   0   0   0   5  0  0
 167 305   0   0   0   0  0  0
 168 644   0   7   0   0  1  0
 169 3200   0   0   8   5  0  0
 170 291357   0   0   0   0  0  0
 171 414   1   0   0   1  0  0
 172 324   0   2  25   4  0  0
 173 359   0   0   0   0  0  0
 174 3200   0   0   0   5  0  0
 175 266   2   0   0   6  0  0
 176 3200   0   0   0   5  0  0
 177 305   0   0   0   0  0  0
 178 644   0   7   0   0  1  0
 179 3200   0   0   8   5  0  0
 180 291357   0   0   0   0  0  0
 181 414   1   0   0   1  0  0
 182 324   0   2  26   4  0  0
 183 359   0   0   0   0  0  0
 184 3200   0   0   0   5  0  0
 185 266   2   0   0   6  0  0
 186 3200   0   0   0   5  0  0
 187 305   0   0   0   0  0  0
 188 644   0   7   0   0  1  0
 189 3200   0   0   8   5  0  0
 190 291357   0   0   0   0  0  0
 191 414   1   0   0   1  0  0
 192 324   0   2  27   4  0  0
 193 359   0   0   0   0  0  0
 194 3200   0   0   0   5  0  0
 195 266   2   0   0   6  0  0
 196 3200   0   0   0   5  0  0
 197 305   0   0   0   0  0  0
 198 644   0   7   0   0  1  0
 199 3200   0   0   8   5  0  0
 200 291357   0   0   0   0  0  0
 201 414   1   0   0   1  0  0
 202 324   0   2  28   4  0  0
 203 359   0   0   0   0  0  0
 204 3200   0   0   0   5  0  0
 205 266   2   0   0   6  0  0
 206 3200   0   0   0   5  0  0
 207 305   0   0   0   0  0  0
 208 644   0   7   0   0  1  0
 209 3200   0   0   8   5  0  0
 210 291357   0   0   0   0  0  0
 211 414   1   0   0   1  0  0
 212 324   0   2  29   4  0  0
 213 359   0   0   0   0  0  0
 214 3200   0   0   0   5  0  0
 215 266   2   0   0   6  0  0
 216 3200   0   0   0   5  0  0
 217 305   0   0   0   0  0  0
 218 644   0   7   0   0  1  0
 219 3200   0   0   8   5  0  0
 220 291357   0   0   0   0  0  0
 221 414   1   0   0   1  0  0
 222 324   0   2  30   4  0  0
 223 359   0   0   0   0  0  0
 224 3200   0   0   0   5  0  0
 225 266   2   0   0   6  0  0
 226 3200   0   0   0   5  0  0
 227 305   0   0   0   0  0  0
 228 644   0   7   0   0  1  0
 229 3200   0   0   8   5  0  0
 230 291357   0   0   0   0  0  0
 231 414   1   0   0   1  0  0
 232 324   0   2  31   4  0  0
 233 359   0   0   0   0  0  0
 234 3200   0   0   0   5  0  0
 235 266   2   0   0   6  0  0
 236 3200   0   0   0   5  0  0
 237 305   0   0   0   0  0  0
 238 644   0   7   0   0  1  0
 239 3200   0   0   8   5  0  0
 240 291357   0   0   0   0  0  0
 241 414   1   0   0   1  0  0
 242 324   0   2  32   4  0  0
 243 359   0   0   0   0  0  0
 244 3200   0   0   0   5  0  0
 245 266   2   0   0   6  0  0
 246 3200   0   0   0   5  0  0
 247 305   0   0   0   0  0  0
 248 644   0   7   0   0  1  0
 249 3200   0   0   8   5  0  0
 250 291357   0   0   0   0  0  0
 251 414   1   0   0   1  0  0
 252 324   0   2  33   4  0  0
 253 359   0   0   0   0  0  0
 254 3200   0   0   0   5  0  0
 255 266   2   0   0   6  0  0
 256 3200   0   0   0   5  0  0
 257 305   0   0   0   0  0  0
 258 644   0   7   0   0  1  0
 259 3200   0   0   8   5  0  0
 260 291357   0   0   0   0  0  0
 261 414   1   0   0   1  0  0
 262 324   0   2  34   4  0  0
 263 359   0   0   0   0  0  0
 264 3200   0   0   0   5  0  0
 265 266   2   0   0   6  0  0
 266 3200   0   0   0   5  0  0
 267 305   0   0   0   0  0  0
 268 644   0   7   0   0  1  0
 269 3200   0   0   8   5  0  0
 270 291357   0   0   0   0  0  0
 271 414   1   0   0   1  0  0
 272 324   0   2  35   4  0  0
 273 359   0   0   0   0  0  0
 274 3200   0   0   0   5  0  0
 275 266   2   0   0   6  0  0
 276 3200   0   0   0   5  0  0
 277 305   0   0   0   0  0  0
 278 644   0   7   0   0  1  0
 279 3200   0   0   8   5  0  0
 280 291357   0   0   0   0  0  0
 281 414   1   0   0   1  0  0
 282 324   0   2  36   4  0  0
 283 359   0   0   0   0  0  0
 284 3200   0   0   0   5  0  0
 285 266   2   0   0   6  0  0
 286 3200   0   0   0   5  0  0
 287 305   0   0   0   0  0  0
 288 644   0   7   0   0  1  0
 289 3200   0   0   8   5  0  0
 290 291357   0   0   0   0  0  0
 291 414   1   0   0   1  0  0
 292 324   0   2  37   4  0  0
 293 359   0   0   0   0  0  0
 294 3200   0   0   0   5  0  0
 295 266   2   0   0   6  0  0
 296 3200   0   0   0   5  0  0
 297 305   0   0   0   0  0  0
 298 644   0   7   0   0  1  0
 299 3200   0   0   8   5  0  0
 300 291357   0   0   0   0  0  0
 301 414   1   0   0   1  0  0
 302 324   0   2  38   4  0  0
 303 359   0   0   0   0  0  0
 304 3200   0   0   0   5  0  0
 305 266   2   0   0   6  0  0
 306 3200   0   0   0   5  0  0
 307 305   0   0   0   0  0  0
 308 644   0   7   0   0  1  0
 309 3200   0   0   8   5  0  0
 310 291357   0   0   0   0  0  0
 311 414   1   0   0   1  0  0
 312 324   0   2  39   4  0  0
 313 359   0   0   0   0  0  0
 314 3200   0   0   0   5  0  0
 315 266   2   0   0   6  0  0
 316 3200   0   0   0   5  0  0
 317 305   0   0   0   0  0  0
 318 644   0   7   0   0  1  0
 319 3200   0   0   8   5  0  0
 320 291357   0   0   0   0  0  0
 321 414   1   0   0   1  0  0
 322 324   0   2  40   4  0  0
 323 359   0   0   0   0  0  0
 324 3200   0   0   0   5  0  0
 325 266   2   0   0   6  0  0
 326 3200   0   0   0   5  0  0
 327 305   0   0   0   0  0  0
 328 644   0   7   0   0  1  0
 329 3200   0   0   8   5  0  0
 330 291357   0   0   0   0  0  0
 331 414   1   0   0   1  0  0
 332 324   0   2  41   4  0  0
 333 359   0   0   0   0  0  0
 334 3200   0   0   0   5  0  0
 335 266   2   0   0   6  0  0
 336 3200   0   0   0   5  0  0
 337 305   0   0   0   0  0  0
 338 644   0   7   0   0  1  0
 339 3200   0   0   8   5  0  0
 340 291357   0   0   0   0  0  0
 341 414   1   0   0   1  0  0
 342 324   0   2  42   4  0  0
 343 359   0   0   0   0  0  0
 344 3200   0   0   0   5  0  0
 345 266   2   0   0   6  0  0
 346 3200   0   0   0   5  0  0
 347 305   0   0   0   0  0  0
 348 644   0   7   0   0  1  0
 349 3200   0   0   8   5  0  0
 350 291357   0   0   0   0  0  0
 351 414   1   0   0   1  0  0
 352 324   0   2  43   4  0  0
 353 359   0   0   0   0  0  0
 354 3200   0   0   0   5  0  0
 355 266   2   0   0   6  0  0
 356 3200   0   0   0   5  0  0
 357 305   0   0   0   0  0  0
 358 644   0   7   0   0  1  0
 359 3200   0   0   8   5  0  0
 360 291357   0   0   0   0  0  0
 361 414   1   0   0   1  0  0
 362 324   0   2  44   4  0  0
 363 359   0   0   0   0  0  0
 364 3200   0   0   0   5  0  0
 365 266   2   0   0   6  0  0
 366 3200   0   0   0   5  0  0
 367 305   0   0   0   0  0  0
 368 644   0   7   0   0  1  0
 369 3200   0   0   8   5  0  0
 370 291357   0   0   0   0  0  0
 371 414   1   0   0   1  0  0
 372 324   0   2  45   4  0  0
 373 359   0   0   0   0  0  0
 374 3200   0   0   0   5  0  0
 375 266   2   0   0   6  0  0
 376 3200   0   0   0   5  0  0
 377 305   0   0   0   0  0  0
 378 644   0   7   0   0  1  0
 379 3200   0   0   8   5  0  0
 380 291357   0   0   0   0  0  0
 381 414   1   0   0   1  0  0
 382 324   0   2  46   4  0  0
 383 359   0   0   0   0  0  0
 384 3200   0   0   0   5  0  0
 385 266   2   0   0   6  0  0
 386 3200   0   0   0   5  0  0
 387 305   0   0   0   0  0  0
 388 644   0   7   0   0  1  0
 389 3200   0   0   8   5  0  0
 390 291357   0   0   0   0  0  0
 391 414   1   0   0   1  0  0
 392 324   0   2  47   4  0  0
 393 359   0   0   0   0  0  0
 394 3200   0   0   0   5  0  0
 395 266   2   0   0   6  0  0
 396 3200   0   0   0   5  0  0
 397 305   0   0   0   0  0  0
 398 644   0   7   0   0  1  0
 399 3200   0   0   8   5  0  0
 400 291357   0   0   0   0  0  0
 401 414   1   0   0   1  0  0
 402 324   0   2  48   4  0  0
 403 359   0   0   0   0  0  0
 404 3200   0   0   0   5  0  0
 405 266   2   0   0   6  0  0
 406 3200   0   0   0   5  0  0
 407 305   0   0   0   0  0  0
 408 644   0   7   0   0  1  0
 409 3200   0   0   8   5  0  0
 410 291357   0   0   0   0  0  0
 411 414   1   0   0   1  0  0
 412 324   0   2  49   4  0  0
 413 359   0   0   0   0  0  0
 414 3200   0   0   0   5  0  0
 415 266   2   0   0   6  0  0
 416 3200   0   0   0   5  0  0
 417 305   0   0   0   0  0  0
 418 644   0   7   0   0  1  0
 419 3200   0   0   8   5  0  0
 420 291357   0   0   0   0  0  0
 421 414   1   0   0   1  0  0
 422 324   0   2  50   4  0  0
 423 359   0   0   0   0  0  0
 424 3200   0   0   0   5  0  0
 425 266   2   0   0   6  0  0
 426 3200   0   0   0   5  0  0
 427 305   0   0   0   0  0  0
 428 644   0   7   0   0  1  0
 429 3200   0   0   8   5  0  0
 430 291357   0   0   0   0  0  0
 431 414   1   0   0   1  0  0
 432 324   0   2  51   4  0  0
 433 359   0   0   0   0  0  0
 434 3200   0   0   0   5  0  0
 435 266   2   0   0   6  0  0
 436 3200   0   0   0   5  0  0
 437 305   0   0   0   0  0  0
 438 644   0   7   0   0  1  0
 439 3200   0   0   8   5  0  0
 440 291357   0   0   0   0  0  0
 441 414   1   0   0   1  0  0
 442 324   0   2  52   4  0  0
 443 359   0   0   0   0  0  0
 444 3200   0   0   0   5  0  0
 445 266   2   0   0   6  0  0
 446 3200   0   0   0   5  0  0
 447 305   0   0   0   0  0  0
 448 644   0   7   0   0  1  0
 449 3200   0   0   8   5  0  0
 450 291357   0   0   0   0  0  0
 451 414   1   0   0   1  0  0
 452 324   0   2  53   4  0  0
 453 359   0   0   0   0  0  0
 454 3200   0   0   0   5  0  0
 455 266   2   0   0   6  0  0
 456 3200   0   0   0   5  0  0
 457 305   0   0   0   0  0  0
 458 644   0   7   0   0  1  0
 459 3200   0   0   8   5  0  0
 460 291357   0   0   0   0  0  0
 461 414   1   0   0   1  0  0
 462 324   0   2  54   4  0  0
 463 359   0   0   0   0  0  0
 464 3200   0   0   0   5  0  0
 465 266   2   0   0   6  0  0
 466 3200   0   0   0   5  0  0
 467 305   0   0   0   0  0  0
 468 644   0   7   0   0  1  0
 469 3200   0   0   8   5  0  0
 470 291357   0   0   0   0  0  0
 471 414   1   0   0   1  0  0
 472 324   0   2  55   4  0  0
 473 359   0   0   0   0  0  0
 474 3200   0   0   0   5  0  0
 475 266   2   0   0   6  0  0
 476 3200   0   0   0   5  0  0
 477 305   0   0   0   0  0  0
 478 644   0   7   0   0  1  0
 479 3200   0   0   8   5  0  0
 480 291357   0   0   0   0  0  0
 481 414   1   0   0   1  0  0
 482 324   0   2  56   4  0  0
 483 359   0   0   0   0  0  0
 484 3200   0   0   0   5  0  0
 485 266   2   0   0   6  0  0
 486 3200   0   0   0   5  0  0
 487 305   0   0   0   0  0  0
 488 644   0   7   0   0  1  0
 489 3200   0   0   8   5  0  0
 490 291357   0   0   0   0  0  0
 491 414   1   0   0   1  0  0
 492 324   0   2  57   4  0  0
 493 359   0   0   0   0  0  0
 494 3200   0   0   0   5  0  0
 495 266   2   0   0   6  0  0
 496 3200   0   0   0   5  0  0
 497 305   0   0   0   0  0  0
 498 644   0   7   0   0  1  0
 499 3200   0   0   8   5  0  0
 500 291357   0   0   0   0  0  0
 501 414   1   0   0   1  0  0
 502 324   0   2  58   4  0  0
 503 359   0   0   0   0  0  0
 504 3200   0   0   0   5  0  0
 505 266   2   0   0   6  0  0
 506 3200   0   0   0   5  0  0
 507 305   0   0   0   0  0  0
 508 644   0   7   0   0  1  0
 509 3200   0   0   8   5  0  0
 510 291357   0   0   0   0  0  0
 511 414   1   0   0   1  0  0
 512 324   0   2  59   4  0  0
 513 359   0   0   0   0  0  0
 514 3200   0   0   0   5  0  0
 515 266   2   0   0   6  0  0
 516 3200   0   0   0   5  0  0
 517 305   0   0   0   0  0  0
 518 644   0   7   0   0  1  0
 519 3200   0   0   8   5  0  0
 520 291357   0   0   0   0  0  0
 521 414   1   0   0   1  0  0
 522 324   0   2  60   4  0  0
 523 359   0   0   0   0  0  0
 524 3200   0   0   0   5  0  0
 525 266   2   0   0   6  0  0
 526 3200   0   0   0   5  0  0
 527 305   0   0   0   0  0  0
 528 644   0   7   0   0  1  0
 529 3200   0   0   8   5  0  0
 530 291357   0   0   0   0  0  0
 531 414   1   0   0   1  0  0
 532 324   0   2  61   4  0  0
 533 359   0   0   0   0  0  0
 534 3200   0   0   0   5  0  0
 535 266   2   0   0   6  0  0
 536 3200   0   0   0   5  0  0
 537 305   0   0   0   0  0  0
 538 644   0   7   0   0  1  0
 539 3200   0   0   8   5  0  0
 540 291357   0   0   0   0  0  0
 541 414   1   0   0   1  0  0
 542 324   0   2  62   4  0  0
 543 359   0   0   0   0  0  0
 544 3200   0   0   0   5  0  0
 545 266   2   0   0   6  0  0
 546 3200   0   0   0   5  0  0
 547 305   0   0   0   0  0  0
 548 644   0   7   0   0  1  0
 549 3200   0   0   8   5  0  0
 550 291357   0   0   0   0  0  0
 551 414   1   0   0   1  0  0
 552 324   0   2  63   4  0  0
 553 359   0   0   0   0  0  0
 554 3200   0   0   0   5  0  0
 555 266   2   0   0   6  0  0
 556 3200   0   0   0   5  0  0
 557 305   0   0   0   0  0  0
 558 644   0   7   0   0  1  0
 559 3200   0   0   8   5  0  0
 560 291357   0   0   0   0  0  0
 561 414   1   0   0   1  0  0
 562 324   0   2  64   4  0  0
 563 359   0   0   0   0  0  0
 564 3200   0   0   0   5  0  0
 565 266   2   0   0   6  0  0
 566 3200   0   0   0   5  0  0
 567 305   0   0   0   0  0  0
 568 644   0   7   0   0  1  0
 569 3200   0   0   8   5  0  0
 570 291357   0   0   0   0  0  0
 571 414   1   0   0   1  0  0
 572 324   0   2  65   4  0  0
 573 359   0   0   0   0  0  0
 574 3200   0   0   0   5  0  0
 575 266   2   0   0   6  0  0
 576 3200   0   0   0   5  0  0
 577 305   0   0   0   0  0  0
 578 644   0   7   0   0  1  0
 579 3200   0   0   8   5  0  0
 580 291357   0   0   0   0  0  0
 581 414   1   0   0   1  0  0
 582 324   0   2  66   4  0  0
 583 359   0   0   0   0  0  0
 584 3200   0   0   0   5  0  0
 585 266   2   0   0   6  0  0
 586 3200   0   0   0   5  0  0
 587 305   0   0   0   0  0  0
 588 644   0   7   0   0  1  0
 589 3200   0   0   8   5  0  0
 590 291357   0   0   0   0  0  0
 591 414   1   0   0   1  0  0
 592 324   0   2  67   4  0  0
 593 359   0   0   0   0  0  0
 594 3200   0   0   0   5  0  0
 595 266   2   0   0   6  0  0
 596 3200   0   0   0   5  0  0
 597 305   0   0   0   0  0  0
 598 644   0   7   0   0  1  0
 599 3200   0   0   8   5  0  0
 600 291357   0   0   0   0  0  0
 601 414   1   0   0   1  0  0
 602 324   0   2  68   4  0  0
 603 359   0   0   0   0  0  0
 604 3200   0   0   0   5  0  0
 605 266   2   0   0   6  0  0
 606 3200   0   0   0   5  0  0
 607 305   0   0   0   0  0  0
 608 644   0   7   0   0  1  0
 609 3200   0   0   8   5  0  0
 610 291357   0   0   0   0  0  0
 611 414   1   0   0   1  0  0
 612 324   0   2  69   4  0  0
 613 359   0   0   0   0  0  0
 614 3200   0   0   0   5  0  0
 615 266   2   0   0   6  0  0
 616 3200   0   0   0   5  0  0
 617 305   0   0   0   0  0  0
 618 644   0   7   0   0  1  0
 619 3200   0   0   8   5  0  0
 620 291357   0   0   0   0  0  0
 621 414   1   0   0   1  0  0
 622 324   0   2  70   4  0  0
 623 359   0   0   0   0  0  0
 624 3200   0   0   0   5  0  0
 625 266   2   0   0   6  0  0
 626 3200   0   0   0   5  0  0
 627 305   0   0   0   0  0  0
 628 644   0   7   0   0  1  0
 629 3200   0   0   8   5  0  0
 630 291357   0   0   0   0  0  0
 631 414   1   0   0   1  0  0
 632 324   0   2  71   4  0  0
 633 359   0   0   0   0  0  0
 634 3200   0   0   0   5  0  0
 635 266   2   0   0   6  0  0
 636 3200   0   0   0   5  0  0
 637 305   0   0   0   0  0  0
 638 644   0   7   0   0  1  0
 639 3200   0   0   8   5  0  0
 640 291357   0   0   0   0  0  0
 641 414   1   0   0   1  0  0
 642 324   0   2  72   4  0  0
 643 359   0   0   0   0  0  0
 644 3200   0   0   0   5  0  0
 645 266   2   0   0   6  0  0
 646 3200   0   0   0   5  0  0
 647 305   0   0   0   0  0  0
 648 644   0   7   0   0  1  0
 649 3200   0   0   8   5  0  0
 650 291357   0   0   0   0  0  0
 651 414   1   0   0   1  0  0
 652 324   0   2  73   4  0  0
 653 359   0   0   0   0  0  0
 654 3200   0   0   0   5  0  0
 655 266   2   0   0   6  0  0
 656 3200   0   0   0   5  0  0
 657 305   0   0   0   0  0  0
 658 644   0   7   0   0  1  0
 659 3200   0   0   8   5  0  0
 660 291357   0   0   0   0  0  0
 661 414   1   0   0   1  0  0
 662 324   0   2  74   4  0  0
 663 359   0   0   0   0  0  0
 664 3200   0   0   0   5  0  0
 665 266   2   0   0   6  0  0
 666 3200   0   0   0   5  0  0
 667 305   0   0   0   0  0  0
 668 644   0   7   0   0  1  0
 669 3200   0   0   8   5  0  0
 670 291357   0   0   0   0  0  0
 671 414   1   0   0   1  0  0
 672 324   0   2  75   4  0  0
 673 359   0   0   0   0  0  0
 674 3200   0   0   0   5  0  0
 675 266   2   0   0   6  0  0
 676 3200   0   0   0   5  0  0
 677 305   0   0   0   0  0  0
 678 644   0   7   0   0  1  0
 679 3200   0   0   8   5  0  0
 680 291357   0   0   0   0  0  0
 681 414   1   0   0   1  0  0
 682 324   0   2  76   4  0  0
 683 359   0   0   0   0  0  0
 684 3200   0   0   0   5  0  0
 685 266   2   0   0   6  0  0
 686 3200   0   0   0   5  0  0
 687 305   0   0   0   0  0  0
 688 644   0   7   0   0  1  0
 689 3200   0   0   8   5  0  0
 690 291357   0   0   0   0  0  0
 691 414   1   0   0   1  0  0
 692 324   0   2  77   4  0  0
 693 359   0   0   0   0  0  0
 694 3200   0   0   0   5  0  0
 695 266   2   0   0   6  0  0
 696 3200   0   0   0   5  0  0
 697 305   0   0   0   0  0  0
 698 644   0   7   0   0  1  0
 699 3200   0   0   8   5  0  0
 700 291357   0   0   0   0  0  0
 701 414   1   0   0   1  0  0
 702 324   0   2  78   4  0  0
 703 359   0   0   0   0  0  0
 704 3200   0   0   0   5  0  0
 705 266   2   0   0   6  0  0
 706 3200   0   0   0   5  0  0
 707 305   0   0   0   0  0  0
 708 644   0   7   0   0  1  0
 709 3200   0   0   8   5  0  0
 710 291357   0   0   0   0  0  0
 711 414   1   0   0   1  0  0
 712 324   0   2  79   4  0  0
 713 359   0   0   0   0  0  0
 714 3200   0   0   0   5  0  0
 715 266   2   0   0   6  0  0
 716 3200   0   0   0   5  0  0
 717 305   0   0   0   0  0  0
 718 644   0   7   0   0  1  0
 719 3200   0   0   8   5  0  0
 720 291357   0   0   0   0  0  0
 721 414   1   0   0   1  0  0
 722 324   0   2  80   4  0  0
 723 359   0   0   0   0  0  0
 724 3200   0   0   0   5  0  0
 725 266   2   0   0   6  0  0
 726 3200   0   0   0   5  0  0
 727 305   0   0   0   0  0  0
 728 644   0   7   0   0  1  0
 729 3200   0   0   8   5  0  0
 730 291357   0   0   0   0  0  0
 731 414   1   0   0   1  0  0
 732 324   0   2  81   4  0  0
 733 359   0   0   0   0  0  0
 734 3200   0   0   0   5  0  0
 735 266   2   0   0   6  0  0
 736 3200   0   0   0   5  0  0
 737 305   0   0   0   0  0  0
 738 644   0   7   0   0  1  0
 739 3200   0   0   8   5  0  0
 740 291357   0   0   0   0  0  0
 741 414   1   0   0   1  0  0
 742 324   0   2  82   4  0  0
 743 359   0   0   0   0  0  0
 744 3200   0   0   0   5  0  0
 745 266   2   0   0   6  0  0
 746 3200   0   0   0   5  0  0
 747 305   0   0   0   0  0  0
 748 644   0   7   0   0  1  0
 749 3200   0   0   8   5  0  0
 750 291357   0   0   0   0  0  0
 751 414   1   0   0   1  0  0
 752 324   0   2  83   4  0  0
 753 359   0   0   0   0  0  0
 754 3200   0   0   0   5  0  0
 755 266   2   0   0   6  0  0
 756 3200   0   0   0   5  0  0
 757 305   0   0   0   0  0  0
 758 644   0   7   0   0  1  0
 759 3200   0   0   8   5  0  0
 760 291357   0   0   0   0  0  0
 761 414   1   0   0   1  0  0
 762 324   0   2  84   4  0  0
 763 359   0   0   0   0  0  0
 764 3200   0   0   0   5  0  0
 765 266   2   0   0   6  0  0
 766 3200   0   0   0   5  0  0
 767 305   0   0   0   0  0  0
 768 644   0   7   0   0  1  0
 769 3200   0   0   8   5  0  0
 770 291357   0   0   0   0  0  0
 771 414   1   0   0   1  0  0
 772 324   0   2  85   4  0  0
 773 359   0   0   0   0  0  0
 774 3200   0   0   0   5  0  0
 775 266   2   0   0   6  0  0
 776 3200   0   0   0   5  0  0
 777 305   0   0   0   0  0  0
 778 644   0   7   0   0  1  0
 779 3200   0   0   8   5  0  0
 780 291357   0   0   0   0  0  0
 781 414   1   0   0   1  0  0
 782 324   0   2  86   4  0  0
 783 359   0   0   0   0  0  0
 784 3200   0   0   0   5  0  0
 785 266   2   0   0   6  0  0
 786 3200   0   0   0   5  0  0
 787 305   0   0   0   0  0  0
 788 644   0   7   0   0  1  0
 789 3200   0   0   8   5  0  0
 790 291357   0   0   0   0  0  0
 791 414   1   0   0   1  0  0
 792 324   0   2  87   4  0  0
 793 359   0   0   0   0  0  0
 794 3200   0   0   0   5  0  0
 795 266   2   0   0   6  0  0
 796 3200   0   0   0   5  0  0
 797 305   0   0   0   0  0  0
 798 644   0   7   0   0  1  0
 799 3200   0   0   8   5  0  0
 800 291357   0   0   0   0  0  0
 801 414   1   0   0   1  0  0
 802 324   0   2  88   4  0  0
 803 359   0   0   0   0  0  0
 804 3200   0   0   0   5  0  0
 805 266   2   0   0   6  0  0
 806 3200   0   0   0   5  0  0
 807 305   0   0   0   0  0  0
 808 644   0   7   0   0  1  0
 809 3200   0   0   8   5  0  0
 810 291357   0   0   0   0  0  0
 811 414   1   0   0   1  0  0
 812 324   0   2  89   4  0  0
 813 359   0   0   0   0  0  0
 814 3200   0   0   0   5  0  0
 815 266   2   0   0   6  0  0
 816 3200   0   0   0   5  0  0
 817 305   0   0   0   0  0  0
 818 644   0   7   0   0  1  0
 819 3200   0   0   8   5  0  0
 820 291357   0   0   0   0  0  0
 821 414   1   0   0   1  0  0
 822 324   0   2  90   4  0  0
 823 359   0   0   0   0  0  0
 824 3200   0   0   0   5  0  0
 825 266   2   0   0   6  0  0
 826 3200   0   0   0   5  0  0
 827 305   0   0   0   0  0  0
 828 644   0   7   0   0  1  0
 829 3200   0   0   8   5  0  0
 830 291357   0   0   0   0  0  0
 831 414   1   0   0   1  0  0
 832 324   0   2  91   4  0  0
 833 359   0   0   0   0  0  0
 834 3200   0   0   0   5  0  0
 835 266   2   0   0   6  0  0
 836 3200   0   0   0   5  0  0
 837 305   0   0   0   0  0  0
 838 644   0   7   0   0  1  0
 839 3200   0   0   8   5  0  0
 840 291357   0   0   0   0  0  0
 841 414   1   0   0   1  0  0
 842 324   0   2  92   4  0  0
 843 359   0   0   0   0  0  0
 844 3200   0   0   0   5  0  0
 845 266   2   0   0   6  0  0
 846 3200   0   0   0   5  0  0
 847 305   0   0   0   0  0  0
 848 644   0   7   0   0  1  0
 849 3200   0   0   8   5  0  0
 850 291357   0   0   0   0  0  0
 851 414   1   0   0   1  0  0
 852 324   0   2  93   4  0  0
 853 359   0   0   0   0  0  0
 854 3200   0   0   0   5  0  0
 855 266   2   0   0   6  0  0
 856 3200   0   0   0   5  0  0
 857 305   0   0   0   0  0  0
 858 644   0   7   0   0  1  0
 859 3200   0   0   8   5  0  0
 860 291357   0   0   0   0  0  0
 861 414   1   0   0   1  0  0
 862 324   0   2  94   4  0  0
 863 359   0   0   0   0  0  0
 864 3200   0   0   0   5  0  0
 865 266   2   0   0   6  0  0
 866 3200   0   0   0   5  0  0
 867 305   0   0   0   0  0  0
 868 644   0   7   0   0  1  0
 869 3200   0   0   8   5  0  0
 870 291357   0   0   0   0  0  0
 871 414   1   0   0   1  0  0
 872 324   0   2  95   4  0  0
 873 359   0   0   0   0  0  0
 874 3200   0   0   0   5  0  0
 875 266   2   0   0   6  0  0
 876 3200   0   0   0   5  0  0
 877 305   0   0   0   0  0  0
 878 644   0   7   0   0  1  0
 879 3200   0   0   8   5  0  0
 880 291357   0   0   0   0  0  0
 881 414   1   0   0   1  0  0
 882 324   0   2  96   4  0  0
 883 359   0   0   0   0  0  0
 884 3200   0   0   0   5  0  0
 885 266   2   0   0   6  0  0
 886 3200   0   0   0   5  0  0
 887 305   0   0   0   0  0  0
 888 644   0   7   0   0  1  0
 889 3200   0   0   8   5  0  0
 890 291357   0   0   0   0  0  0
 891 414   1   0   0   1  0  0
 892 324   0   2  97   4  0  0
 893 359   0   0   0   0  0  0
 894 3200   0   0   0   5  0  0
 895 266   2   0   0   6  0  0
 896 3200   0   0   0   5  0  0
 897 305   0   0   0   0  0  0
 898 644   0   7   0   0  1  0
 899 3200   0   0   8   5  0  0
 900 291357   0   0   0   0  0  0
 901 414   1   0   0   1  0  0
 902 324   0   2  98   4  0  0
 903 359   0   0   0   0  0  0
 904 3200   0   0   0   5  0  0
 905 266   2   0   0   6  0  0
 906 3200   0   0   0   5  0  0
 907 305   0   0   0   0  0  0
 908 644   0   7   0   0  1  0
 909 3200   0   0   8   5  0  0
 910 291357   0   0   0   0  0  0
 911 414   1   0   0   1  0  0
 912 324   0   2  99   4  0  0
 913 359   0   0   0   0  0  0
 914 3200   0   0   0   5  0  0
 915 266   2   0   0   6  0  0
 916 3200   0   0   0   5  0  0
 917 305   0   0   0   0  0  0
 918 644   0   7   0   0  1  0
 919 3200   0   0   8   5  0  0
 920 291357   0   0   0   0  0  0
 921 414   1   0   0   1  0  0
 922 324   0   2 100   4  0  0
 923 359   0   0   0   0  0  0
 924 3200   0   0   0   5  0  0
 925 266   2   0   0   6  0  0
 926 3200   0   0   0   5  0  0
 927 305   0   0   0   0  0  0
 928 644   0   7   0   0  1  0
 929 3200   0   0   8   5  0  0
 930 291357   0   0   0   0  0  0
 931 414   1   0   0   1  0  0
 932 324   0   2 101   4  0  0
 933 359   0   0   0   0  0  0
 934 3200   0   0   0   5  0  0
 935 266   2   0   0   6  0  0
 936 3200   0   0   0   5  0  0
 937 305   0   0   0   0  0  0
 938 644   0   7   0   0  1  0
 939 3200   0   0   8   5  0  0
 940 291357   0   0   0   0  0  0
